,concentration,temperature,reaction_rate,time
0,0.0,50.0,0.0,0.0
1,0.0047973589881466034,49.604137281402885,0.0357308433825327,0.01
2,0.009197836216118253,49.21646084691571,0.0701785158188727,0.02
3,0.013223799571154615,48.83679026426988,0.1022071773865822,0.03
4,0.016896915328501908,48.46494915078746,0.1330489562443029,0.04
5,0.020238135127961424,48.10076511309688,0.16157203340733062,0.05
6,0.023267685186432328,47.7440696859464,0.18901213458409505,0.06
7,0.02600505779407449,47.394698270063756,0.21424060090696595,0.07
8,0.028469005122838915,47.052490069029474,0.23849587042323558,0.08
9,0.030677535357279812,46.71728802515083,0.26065154220846604,0.09
10,0.032647911138991285,46.38893875434171,0.2819478549529677,0.1
11,0.034396650297913806,46.06729248003187,0.3012597518256226,0.11
12,0.0359395288263315,45.75220296614605,0.3198283633665935,0.12
13,0.03729158603481839,45.443527449209704,0.33652908007487903,0.13
14,0.03846713181386152,45.14112656965279,0.35260304626781475,0.14
15,0.03947975591054465,44.844864302396985,0.36692524667115256,0.15
16,0.040342339116651166,44.55460788682354,0.38073601708034904,0.16
17,0.041067066252950424,44.27022775622986,0.3929091502901978,0.17
18,0.041665440824356574,43.99159746689185,0.4046834283512651,0.18
19,0.042148301212157735,43.71859362685638,0.4149307520519881,0.19
20,0.042525838262647955,43.45109582459401,0.4248876983751621,0.2
21,0.042807614126271744,43.18898655764605,0.43342367651116076,0.21
22,0.04300258219780601,42.93215116140241,0.4417725128579078,0.22
23,0.04311910800612926,42.680477738147566,0.4488006352735067,0.23
24,0.04316499090171439,42.433857086510855,0.45573868670162326,0.24
25,0.0431474863910622,42.19218263145538,0.4614497381360376,0.25
26,0.043073328969782686,41.955350354935945,0.4671609307590212,0.26
27,0.04294875530983028,41.72325872735162,0.47173171695184674,0.27
28,0.04277952766139517,41.49580863991256,0.47638552976394866,0.28
29,0.04257095733602135,41.27290333803349,0.47997805031339985,0.29
30,0.04232792814453282,41.05444835585865,0.48372890250375233,0.3
31,0.042054919671164974,40.84035145201421,0.4864899443541192,0.31
32,0.0417560302737785,40.63052254667498,0.4894769851782317,0.32
33,0.04143499970903821,40.42487366002283,0.49153809778701013,0.33
34,0.041095231290829315,40.22331885216417,0.4938853548549009,0.34
35,0.04073981349982374,40.02577416456394,0.49536315855556096,0.35000000000000003
36,0.04037154097186896,39.83215756304347,0.497179992563703,0.36
37,0.039992934802629256,39.642388882379606,0.49817676550973866,0.37
38,0.03960626211554985,39.45638977253297,0.49955857498796297,0.38
39,0.039213554849634104,39.2740836465235,0.5001630612300026,0.39
40,0.03881662773262987,39.09539562996273,0.5011921795885802,0.4
41,0.03841709541393084,38.920252512243636,0.5014805610046654,0.41000000000000003
42,0.03801638873974274,38.74858269938081,0.5022272896792811,0.42
43,0.0376157701607848,38.58031616848659,0.5022642672117784,0.43
44,0.03721634826994798,38.41538442386179,0.5027879925248541,0.44
45,0.03681909147387908,38.25372045467378,0.5026279269450988,0.45
46,0.03642484080838179,38.09525869418924,0.5029782738720981,0.46
47,0.036034321912808955,37.93993498052407,0.5026663425212793,0.47000000000000003
48,0.035648156183264015,37.7876865188692,0.5028843252916358,0.48
49,0.03526687112843967,37.6384518451473,0.50245765836153,0.49
50,0.034890909955313645,37.492170791053006,0.5025767951799217,0.5
51,0.034520640414717474,37.348784450426955,0.5020655625692817,0.51
52,0.03415636293902187,37.208235146912486,0.5021129292160997,0.52
53,0.033798318105875254,37.070466402842854,0.5015413563683265,0.53
54,0.03344669346312681,36.93542290930627,0.5015385606123608,0.54
55,0.03310162975080239,36.8030504973361,0.5009258586385932,0.55
56,0.032763226556322265,36.67329611017394,0.5008899239503074,0.56
57,0.03243154743909685,36.54610777655391,0.500251125499357,0.5700000000000001
58,0.0321066245602543,36.42143458495764,0.5001952782698011,0.58
59,0.03178846285258354,36.29922665879076,0.4995419758515131,0.59
60,0.03147704376486081,36.179435132433156,0.49947633507558836,0.6
61,0.031172328613606776,36.06201212811702,0.49881732279675073,0.61
62,0.030874261574032384,35.946910733588595,0.4987494949304882,0.62
63,0.030582772340510957,35.83408498051154,0.49809131785925337,0.63
64,0.0302977784853942,35.7234898235717,0.4980269023381925,0.64
65,0.030019187543400865,35.61508112024538,0.49737432003167953,0.65
66,0.029746898847175914,35.508815611195246,0.49731733282273427,0.66
67,0.029480805137969166,35.40465090125998,0.49667370503346975,0.67
68,0.029220793973736697,35.30254544100599,0.4966269287013182,0.68
69,0.028966748955343805,35.20245850881156,0.49599453204818,0.6900000000000001
70,0.0287185507899606,35.104350193455545,0.4959598012831565,0.7000000000000001
71,0.02847607820920284,35.008181377184904,0.4953400858692315,0.71
72,0.028239208758091876,34.91391371923696,0.495318517385667,0.72
73,0.028007819469496226,34.82150963979411,0.49471231210587474,0.73
74,0.02778178743737982,34.73093230435025,0.49470448741053086,0.74
75,0.027560990300921295,34.64214560846981,0.4941121621428729,0.75
76,0.027345306650388906,34.55511416292167,0.49411827101229483,0.76
77,0.027134616364555744,34.469803279171494,0.49353986313939274,0.77
78,0.026928800888421537,34.386178955217474,0.49355981483447126,0.78
79,0.02672774345906773,34.304207861755366,0.4929951266888009,0.79
80,0.026531329286610467,34.22385732865994,0.49302863505697336,0.8
81,0.026339445696428453,34.1450953317709,0.49247730799639106,0.81
82,0.026151982238126124,34.0678904799721,0.49252395572952035,0.8200000000000001
83,0.025968830766043435,33.9922120025539,0.49198552568284765,0.8300000000000001
84,0.025789885495537918,33.918029736849064,0.4920448121566748,0.84
85,0.025615043038738284,33.845314116133366,0.4915187506689761,0.85
86,0.025444202422997567,33.77403615778264,0.4915901270174312,0.86
87,0.025277265094853358,33.70416745167858,0.49107587109355944,0.87
88,0.025114134911928994,33.635680148856125,0.4911587654845309,0.88
89,0.02495471812487853,33.568546950385574,0.49065573888875424,0.89
90,0.0247989233511862,33.5027410964832,0.4907495743736467,0.9
91,0.024646661542373927,33.43823635584427,0.4902572024952476,0.91
92,0.0244978459459451,33.375007015192885,0.4903614093021988,0.92
93,0.024352392063195904,33.313027869043225,0.4898791292384999,0.93
94,0.024210217603853747,33.25227420966713,0.48999315296288193,0.9400000000000001
95,0.024071242438353523,33.19272181726311,0.48952042009495594,0.9500000000000001
96,0.023935388548433217,33.13434695032225,0.4896437269023183,0.96
97,0.023802579976619352,33.077126336186346,0.4891800189354024,0.97
98,0.0236727427750768,33.021037161794325,0.48931209862141173,0.98
99,0.02354580495421569,32.96605706461247,0.4888569178215183,0.99
100,0.023421696431377752,32.91216412374481,0.48899728536047565,1.0
